#          \hbar \omega(eV)    Oscillator strength
       0.000000000000000E+00  -.000000000000000E+00
       0.100000000000000E-01  0.216510159960360E-06
       0.200000000000000E-01  0.866049030460370E-06
       0.300000000000000E-01  0.194864178409927E-05
       0.400000000000000E-01  0.346433037768396E-05
       0.500000000000000E-01  0.541317355594181E-05
       0.600000000000000E-01  0.779524685671924E-05
       0.700000000000000E-01  0.106106426176670E-04
       0.800000000000000E-01  0.138594699844135E-04
       0.900000000000000E-01  0.175418549202269E-04
       0.100000000000000E+00  0.216579402171677E-04
       0.110000000000000E+00  0.262078855087339E-04
       0.120000000000000E+00  0.311918672840007E-04
       0.130000000000000E+00  0.366100789032560E-04
       0.140000000000000E+00  0.424627306151355E-04
       0.150000000000000E+00  0.487500495752590E-04
       0.160000000000000E+00  0.554722798663722E-04
       0.170000000000000E+00  0.626296825199954E-04
       0.180000000000000E+00  0.702225355395831E-04
       0.190000000000000E+00  0.782511339251998E-04
       0.200000000000000E+00  0.867157896997134E-04
       0.210000000000000E+00  0.956168319365120E-04
       0.220000000000000E+00  0.104954606788747E-03
       0.230000000000000E+00  0.114729477520110E-03
       0.240000000000000E+00  0.124941824537143E-03
       0.250000000000000E+00  0.135592045423095E-03
       0.260000000000000E+00  0.146680554973323E-03
       0.270000000000000E+00  0.158207785232243E-03
       0.280000000000000E+00  0.170174185531845E-03
       0.290000000000000E+00  0.182580222531772E-03
       0.300000000000000E+00  0.195426380260964E-03
       0.310000000000000E+00  0.208713160160888E-03
       0.320000000000000E+00  0.222441081130346E-03
       0.330000000000000E+00  0.236610679571880E-03
       0.340000000000000E+00  0.251222509439766E-03
       0.350000000000000E+00  0.266277142289632E-03
       0.360000000000000E+00  0.281775167329674E-03
       0.370000000000000E+00  0.297717191473500E-03
       0.380000000000000E+00  0.314103839394611E-03
       0.390000000000000E+00  0.330935753582514E-03
       0.400000000000000E+00  0.348213594400487E-03
       0.410000000000000E+00  0.365938040145000E-03
       0.420000000000000E+00  0.384109787106812E-03
       0.430000000000000E+00  0.402729549633733E-03
       0.440000000000000E+00  0.421798060195076E-03
       0.450000000000000E+00  0.441316069447826E-03
       0.460000000000000E+00  0.461284346304481E-03
       0.470000000000000E+00  0.481703678002649E-03
       0.480000000000000E+00  0.502574870176347E-03
       0.490000000000000E+00  0.523898746929075E-03
       0.500000000000000E+00  0.545676150908591E-03
       0.510000000000000E+00  0.567907943383526E-03
       0.520000000000000E+00  0.590595004321697E-03
       0.530000000000000E+00  0.613738232470283E-03
       0.540000000000000E+00  0.637338545437746E-03
       0.550000000000000E+00  0.661396879777620E-03
       0.560000000000000E+00  0.685914191074094E-03
       0.570000000000000E+00  0.710891454029454E-03
       0.580000000000000E+00  0.736329662553397E-03
       0.590000000000000E+00  0.762229829854189E-03
       0.600000000000000E+00  0.788592988531744E-03
       0.610000000000000E+00  0.815420190672593E-03
       0.620000000000000E+00  0.842712507946766E-03
       0.630000000000000E+00  0.870471031706619E-03
       0.640000000000000E+00  0.898696873087620E-03
       0.650000000000000E+00  0.927391163111093E-03
       0.660000000000000E+00  0.956555052788941E-03
       0.670000000000000E+00  0.986189713230395E-03
       0.680000000000000E+00  0.101629633575077E-02
       0.690000000000000E+00  0.104687613198227E-02
       0.700000000000000E+00  0.107793033398682E-02
       0.710000000000000E+00  0.110946019437100E-02
       0.720000000000000E+00  0.114146698640311E-02
       0.730000000000000E+00  0.117395200413228E-02
       0.740000000000000E+00  0.120691656250973E-02
       0.750000000000000E+00  0.124036199751228E-02
       0.760000000000000E+00  0.127428966626787E-02
       0.770000000000000E+00  0.130870094718343E-02
       0.780000000000000E+00  0.134359724007488E-02
       0.790000000000000E+00  0.137897996629944E-02
       0.800000000000000E+00  0.141485056889010E-02
       0.810000000000000E+00  0.145121051269250E-02
       0.820000000000001E+00  0.148806128450406E-02
       0.830000000000001E+00  0.152540439321540E-02
       0.840000000000001E+00  0.156324136995423E-02
       0.850000000000001E+00  0.160157376823150E-02
       0.860000000000001E+00  0.164040316409006E-02
       0.870000000000001E+00  0.167973115625571E-02
       0.880000000000001E+00  0.171955936629068E-02
       0.890000000000001E+00  0.175988943874966E-02
       0.900000000000001E+00  0.180072304133832E-02
       0.910000000000001E+00  0.184206186507432E-02
       0.920000000000001E+00  0.188390762445100E-02
       0.930000000000001E+00  0.192626205760354E-02
       0.940000000000001E+00  0.196912692647787E-02
       0.950000000000001E+00  0.201250401700215E-02
       0.960000000000001E+00  0.205639513926093E-02
       0.970000000000001E+00  0.210080212767214E-02
       0.980000000000001E+00  0.214572684116670E-02
       0.990000000000001E+00  0.219117116337098E-02
       0.100000000000000E+01  0.223713700279208E-02
       0.101000000000000E+01  0.228362629300587E-02
       0.102000000000000E+01  0.233064099284809E-02
       0.103000000000000E+01  0.237818308660813E-02
       0.104000000000000E+01  0.242625458422597E-02
       0.105000000000000E+01  0.247485752149196E-02
       0.106000000000000E+01  0.252399396024972E-02
       0.107000000000000E+01  0.257366598860206E-02
       0.108000000000000E+01  0.262387572111993E-02
       0.109000000000000E+01  0.267462529905463E-02
       0.110000000000000E+01  0.272591689055310E-02
       0.111000000000000E+01  0.277775269087646E-02
       0.112000000000000E+01  0.283013492262178E-02
       0.113000000000000E+01  0.288306583594716E-02
       0.114000000000000E+01  0.293654770880011E-02
       0.115000000000000E+01  0.299058284714941E-02
       0.116000000000000E+01  0.304517358522024E-02
       0.117000000000000E+01  0.310032228573286E-02
       0.118000000000000E+01  0.315603134014482E-02
       0.119000000000000E+01  0.321230316889664E-02
       0.120000000000000E+01  0.326914022166116E-02
       0.121000000000000E+01  0.332654497759656E-02
       0.122000000000000E+01  0.338451994560292E-02
       0.123000000000000E+01  0.344306766458273E-02
       0.124000000000000E+01  0.350219070370504E-02
       0.125000000000000E+01  0.356189166267352E-02
       0.126000000000000E+01  0.362217317199840E-02
       0.127000000000000E+01  0.368303789327235E-02
       0.128000000000000E+01  0.374448851945034E-02
       0.129000000000000E+01  0.380652777513361E-02
       0.130000000000000E+01  0.386915841685769E-02
       0.131000000000000E+01  0.393238323338463E-02
       0.132000000000000E+01  0.399620504599940E-02
       0.133000000000000E+01  0.406062670881060E-02
       0.134000000000000E+01  0.412565110905547E-02
       0.135000000000000E+01  0.419128116740942E-02
       0.136000000000000E+01  0.425751983829983E-02
       0.137000000000000E+01  0.432437011022449E-02
       0.138000000000000E+01  0.439183500607463E-02
       0.139000000000000E+01  0.445991758346255E-02
       0.140000000000000E+01  0.452862093505395E-02
       0.141000000000000E+01  0.459794818890509E-02
       0.142000000000000E+01  0.466790250880478E-02
       0.143000000000000E+01  0.473848709462127E-02
       0.144000000000000E+01  0.480970518265412E-02
       0.145000000000000E+01  0.488156004599120E-02
       0.146000000000000E+01  0.495405499487066E-02
       0.147000000000000E+01  0.502719337704831E-02
       0.148000000000000E+01  0.510097857817009E-02
       0.149000000000000E+01  0.517541402215004E-02
       0.150000000000000E+01  0.525050317155365E-02
       0.151000000000000E+01  0.532624952798662E-02
       0.152000000000000E+01  0.540265663248944E-02
       0.153000000000000E+01  0.547972806593740E-02
       0.154000000000000E+01  0.555746744944655E-02
       0.155000000000000E+01  0.563587844478538E-02
       0.156000000000000E+01  0.571496475479253E-02
       0.157000000000000E+01  0.579473012380042E-02
       0.158000000000000E+01  0.587517833806506E-02
       0.159000000000000E+01  0.595631322620200E-02
       0.160000000000000E+01  0.603813865962870E-02
       0.161000000000000E+01  0.612065855301310E-02
       0.162000000000000E+01  0.620387686472882E-02
       0.163000000000000E+01  0.628779759731687E-02
       0.164000000000000E+01  0.637242479795415E-02
       0.165000000000000E+01  0.645776255892857E-02
       0.166000000000000E+01  0.654381501812109E-02
       0.167000000000000E+01  0.663058635949496E-02
       0.168000000000000E+01  0.671808081359181E-02
       0.169000000000000E+01  0.680630265803504E-02
       0.170000000000000E+01  0.689525621804059E-02
       0.171000000000000E+01  0.698494586693504E-02
       0.172000000000000E+01  0.707537602668131E-02
       0.173000000000000E+01  0.716655116841212E-02
       0.174000000000000E+01  0.725847581297105E-02
       0.175000000000000E+01  0.735115453146165E-02
       0.176000000000000E+01  0.744459194580451E-02
       0.177000000000000E+01  0.753879272930269E-02
       0.178000000000000E+01  0.763376160721501E-02
       0.179000000000000E+01  0.772950335733822E-02
       0.180000000000000E+01  0.782602281059741E-02
       0.181000000000000E+01  0.792332485164544E-02
       0.182000000000000E+01  0.802141441947068E-02
       0.183000000000000E+01  0.812029650801428E-02
       0.184000000000000E+01  0.821997616679620E-02
       0.185000000000000E+01  0.832045850155065E-02
       0.186000000000000E+01  0.842174867487090E-02
       0.187000000000000E+01  0.852385190686357E-02
       0.188000000000000E+01  0.862677347581277E-02
       0.189000000000000E+01  0.873051871885416E-02
       0.190000000000000E+01  0.883509303265879E-02
       0.191000000000000E+01  0.894050187412736E-02
       0.192000000000000E+01  0.904675076109493E-02
       0.193000000000000E+01  0.915384527304568E-02
       0.194000000000000E+01  0.926179105183923E-02
       0.195000000000000E+01  0.937059380244679E-02
       0.196000000000000E+01  0.948025929369947E-02
       0.197000000000000E+01  0.959079335904680E-02
       0.198000000000000E+01  0.970220189732768E-02
       0.199000000000000E+01  0.981449087355206E-02
       0.200000000000000E+01  0.992766631969516E-02
       0.201000000000000E+01  0.100417343355033E-01
       0.202000000000000E+01  0.101567010893120E-01
       0.203000000000000E+01  0.102725728188766E-01
       0.204000000000000E+01  0.103893558322158E-01
       0.205000000000000E+01  0.105070565084673E-01
       0.206000000000000E+01  0.106256812987571E-01
       0.207000000000000E+01  0.107452367270821E-01
       0.208000000000000E+01  0.108657293912060E-01
       0.209000000000000E+01  0.109871659635692E-01
       0.210000000000000E+01  0.111095531922121E-01
       0.211000000000000E+01  0.112328979017135E-01
       0.212000000000000E+01  0.113572069941428E-01
       0.213000000000000E+01  0.114824874500269E-01
       0.214000000000000E+01  0.116087463293330E-01
       0.215000000000000E+01  0.117359907724655E-01
       0.216000000000000E+01  0.118642280012788E-01
       0.217000000000000E+01  0.119934653201060E-01
       0.218000000000000E+01  0.121237101168040E-01
       0.219000000000000E+01  0.122549698638138E-01
       0.220000000000000E+01  0.123872521192388E-01
       0.221000000000000E+01  0.125205645279390E-01
       0.222000000000000E+01  0.126549148226428E-01
       0.223000000000000E+01  0.127903108250763E-01
       0.224000000000000E+01  0.129267604471105E-01
       0.225000000000000E+01  0.130642716919263E-01
       0.226000000000000E+01  0.132028526551983E-01
       0.227000000000000E+01  0.133425115262975E-01
       0.228000000000000E+01  0.134832565895126E-01
       0.229000000000000E+01  0.136250962252912E-01
       0.229999999999999E+01  0.137680389115010E-01
       0.230999999999999E+01  0.139120932247105E-01
       0.231999999999999E+01  0.140572678414908E-01
       0.232999999999999E+01  0.142035715397382E-01
       0.233999999999999E+01  0.143510132000184E-01
       0.234999999999999E+01  0.144996018069314E-01
       0.235999999999999E+01  0.146493464504996E-01
       0.236999999999999E+01  0.148002563275780E-01
       0.237999999999999E+01  0.149523407432868E-01
       0.238999999999999E+01  0.151056091124685E-01
       0.239999999999999E+01  0.152600709611672E-01
       0.240999999999999E+01  0.154157359281337E-01
       0.241999999999999E+01  0.155726137663539E-01
       0.242999999999999E+01  0.157307143446032E-01
       0.243999999999999E+01  0.158900476490259E-01
       0.244999999999999E+01  0.160506237847411E-01
       0.245999999999999E+01  0.162124529774748E-01
       0.246999999999999E+01  0.163755455752196E-01
       0.247999999999999E+01  0.165399120499205E-01
       0.248999999999999E+01  0.167055629991909E-01
       0.249999999999999E+01  0.168725091480555E-01
       0.250999999999999E+01  0.170407613507228E-01
       0.251999999999999E+01  0.172103305923878E-01
       0.252999999999999E+01  0.173812279910642E-01
       0.253999999999999E+01  0.175534647994480E-01
       0.254999999999999E+01  0.177270524068125E-01
       0.255999999999999E+01  0.179020023409345E-01
       0.256999999999999E+01  0.180783262700543E-01
       0.257999999999999E+01  0.182560360048689E-01
       0.258999999999999E+01  0.184351435005576E-01
       0.259999999999999E+01  0.186156608588442E-01
       0.260999999999999E+01  0.187976003300932E-01
       0.261999999999999E+01  0.189809743154422E-01
       0.262999999999999E+01  0.191657953689713E-01
       0.263999999999999E+01  0.193520761999095E-01
       0.264999999999999E+01  0.195398296748789E-01
       0.265999999999999E+01  0.197290688201788E-01
       0.266999999999999E+01  0.199198068241083E-01
       0.267999999999999E+01  0.201120570393298E-01
       0.268999999999999E+01  0.203058329852738E-01
       0.269999999999999E+01  0.205011483505856E-01
       0.270999999999999E+01  0.206980169956147E-01
       0.271999999999999E+01  0.208964529549483E-01
       0.272999999999999E+01  0.210964704399887E-01
       0.273999999999999E+01  0.212980838415774E-01
       0.274999999999999E+01  0.215013077326642E-01
       0.275999999999999E+01  0.217061568710247E-01
       0.276999999999998E+01  0.219126462020259E-01
       0.277999999999998E+01  0.221207908614403E-01
       0.278999999999998E+01  0.223306061783118E-01
       0.279999999999998E+01  0.225421076778714E-01
       0.280999999999998E+01  0.227553110845065E-01
       0.281999999999998E+01  0.229702323247827E-01
       0.282999999999998E+01  0.231868875305208E-01
       0.283999999999998E+01  0.234052930419293E-01
       0.284999999999998E+01  0.236254654107935E-01
       0.285999999999998E+01  0.238474214037234E-01
       0.286999999999998E+01  0.240711780054593E-01
       0.287999999999998E+01  0.242967524222400E-01
       0.288999999999998E+01  0.245241620852309E-01
       0.289999999999998E+01  0.247534246540157E-01
       0.290999999999998E+01  0.249845580201530E-01
       0.291999999999998E+01  0.252175803107981E-01
       0.292999999999998E+01  0.254525098923917E-01
       0.293999999999998E+01  0.256893653744179E-01
       0.294999999999998E+01  0.259281656132311E-01
       0.295999999999998E+01  0.261689297159560E-01
       0.296999999999998E+01  0.264116770444584E-01
       0.297999999999998E+01  0.266564272193930E-01
       0.298999999999998E+01  0.269032001243252E-01
       0.299999999999998E+01  0.271520159099328E-01
       0.300999999999998E+01  0.274028949982850E-01
       0.301999999999998E+01  0.276558580872047E-01
       0.302999999999998E+01  0.279109261547127E-01
       0.303999999999998E+01  0.281681204635566E-01
       0.304999999999998E+01  0.284274625658272E-01
       0.305999999999998E+01  0.286889743076629E-01
       0.306999999999998E+01  0.289526778340446E-01
       0.307999999999998E+01  0.292185955936833E-01
       0.308999999999998E+01  0.294867503440023E-01
       0.309999999999998E+01  0.297571651562165E-01
       0.310999999999998E+01  0.300298634205088E-01
       0.311999999999998E+01  0.303048688513106E-01
       0.312999999999998E+01  0.305822054926824E-01
       0.313999999999998E+01  0.308618977238020E-01
       0.314999999999998E+01  0.311439702645602E-01
       0.315999999999998E+01  0.314284481812668E-01
       0.316999999999998E+01  0.317153568924698E-01
       0.317999999999998E+01  0.320047221748890E-01
       0.318999999999998E+01  0.322965701694704E-01
       0.319999999999998E+01  0.325909273875581E-01
       0.320999999999998E+01  0.328878207171922E-01
       0.321999999999998E+01  0.331872774295327E-01
       0.322999999999998E+01  0.334893251854109E-01
       0.323999999999997E+01  0.337939920420170E-01
       0.324999999999997E+01  0.341013064597189E-01
       0.325999999999997E+01  0.344112973090221E-01
       0.326999999999997E+01  0.347239938776713E-01
       0.327999999999997E+01  0.350394258778959E-01
       0.328999999999997E+01  0.353576234538052E-01
       0.329999999999997E+01  0.356786171889350E-01
       0.330999999999997E+01  0.360024381139501E-01
       0.331999999999997E+01  0.363291177145058E-01
       0.332999999999997E+01  0.366586879392732E-01
       0.333999999999997E+01  0.369911812081303E-01
       0.334999999999997E+01  0.373266304205252E-01
       0.335999999999997E+01  0.376650689640140E-01
       0.336999999999997E+01  0.380065307229775E-01
       0.337999999999997E+01  0.383510500875222E-01
       0.338999999999997E+01  0.386986619625687E-01
       0.339999999999997E+01  0.390494017771330E-01
       0.340999999999997E+01  0.394033054938057E-01
       0.341999999999997E+01  0.397604096184323E-01
       0.342999999999997E+01  0.401207512100015E-01
       0.343999999999997E+01  0.404843678907439E-01
       0.344999999999997E+01  0.408512978564509E-01
       0.345999999999997E+01  0.412215798870139E-01
       0.346999999999997E+01  0.415952533571934E-01
       0.347999999999997E+01  0.419723582476200E-01
       0.348999999999997E+01  0.423529351560393E-01
       0.349999999999997E+01  0.427370253087964E-01
       0.350999999999997E+01  0.431246705725793E-01
       0.351999999999997E+01  0.435159134664152E-01
       0.352999999999997E+01  0.439107971739351E-01
       0.353999999999997E+01  0.443093655559074E-01
       0.354999999999997E+01  0.447116631630530E-01
       0.355999999999997E+01  0.451177352491433E-01
       0.356999999999997E+01  0.455276277843929E-01
       0.357999999999997E+01  0.459413874691521E-01
       0.358999999999997E+01  0.463590617479077E-01
       0.359999999999997E+01  0.467806988236007E-01
       0.360999999999997E+01  0.472063476722675E-01
       0.361999999999997E+01  0.476360580580142E-01
       0.362999999999997E+01  0.480698805483337E-01
       0.363999999999997E+01  0.485078665297719E-01
       0.364999999999997E+01  0.489500682239543E-01
       0.365999999999997E+01  0.493965387039825E-01
       0.366999999999997E+01  0.498473319112084E-01
       0.367999999999997E+01  0.503025026723993E-01
       0.368999999999997E+01  0.507621067173014E-01
       0.369999999999997E+01  0.512262006966139E-01
       0.370999999999996E+01  0.516948422003846E-01
       0.371999999999996E+01  0.521680897768388E-01
       0.372999999999996E+01  0.526460029516501E-01
       0.373999999999996E+01  0.531286422476714E-01
       0.374999999999996E+01  0.536160692051313E-01
       0.375999999999996E+01  0.541083464023151E-01
       0.376999999999996E+01  0.546055374767386E-01
       0.377999999999996E+01  0.551077071468304E-01
       0.378999999999996E+01  0.556149212341408E-01
       0.379999999999996E+01  0.561272466860812E-01
       0.380999999999996E+01  0.566447515992217E-01
       0.381999999999996E+01  0.571675052431515E-01
